#               Energy    Degradation (sum)     Degradation    1     Degradation    2     Degradation    3     Degradation    4     Degradation    5     Degradation    6
    0.100000000000E+06   0.271956207520E-02   0.271956207520E-02   0.000000000000E+00   0.000000000000E+00   0.000000000000E+00   0.000000000000E+00   0.000000000000E+00
    0.982820598545E+05   0.267728840308E-02   0.267728840308E-02   0.000000000000E+00   0.000000000000E+00   0.000000000000E+00   0.000000000000E+00   0.000000000000E+00
    0.965936328925E+05   0.263567959358E-02   0.263567959358E-02   0.000000000000E+00   0.000000000000E+00   0.000000000000E+00   0.000000000000E+00   0.000000000000E+00
    0.949342120951E+05   0.259472510421E-02   0.259472510421E-02   0.000000000000E+00   0.000000000000E+00   0.000000000000E+00   0.000000000000E+00   0.000000000000E+00
    0.933032991537E+05   0.255441456076E-02   0.255441456076E-02   0.000000000000E+00   0.000000000000E+00   0.000000000000E+00   0.000000000000E+00   0.000000000000E+00
    0.917004043205E+05   0.251473775461E-02   0.251473775461E-02   0.000000000000E+00   0.000000000000E+00   0.000000000000E+00   0.000000000000E+00   0.000000000000E+00
    0.901250462611E+05   0.247568464008E-02   0.247568464008E-02   0.000000000000E+00   0.000000000000E+00   0.000000000000E+00   0.000000000000E+00   0.000000000000E+00
    0.885767519102E+05   0.243724533182E-02   0.243724533182E-02   0.000000000000E+00   0.000000000000E+00   0.000000000000E+00   0.000000000000E+00   0.000000000000E+00
    0.870550563296E+05   0.239941010220E-02   0.239941010220E-02   0.000000000000E+00   0.000000000000E+00   0.000000000000E+00   0.000000000000E+00   0.000000000000E+00
    0.855595025683E+05   0.236216937884E-02   0.236216937884E-02   0.000000000000E+00   0.000000000000E+00   0.000000000000E+00   0.000000000000E+00   0.000000000000E+00
    0.840896415254E+05   0.232551374205E-02   0.232551374205E-02   0.000000000000E+00   0.000000000000E+00   0.000000000000E+00   0.000000000000E+00   0.000000000000E+00
    0.826450318154E+05   0.228943392246E-02   0.228943392246E-02   0.000000000000E+00   0.000000000000E+00   0.000000000000E+00   0.000000000000E+00   0.000000000000E+00
    0.812252396356E+05   0.225392079852E-02   0.225392079852E-02   0.000000000000E+00   0.000000000000E+00   0.000000000000E+00   0.000000000000E+00   0.000000000000E+00
    0.798298386357E+05   0.221896539420E-02   0.221896539420E-02   0.000000000000E+00   0.000000000000E+00   0.000000000000E+00   0.000000000000E+00   0.000000000000E+00
    0.784584097897E+05   0.218455887662E-02   0.218455887662E-02   0.000000000000E+00   0.000000000000E+00   0.000000000000E+00   0.000000000000E+00   0.000000000000E+00
    0.771105412704E+05   0.215069255375E-02   0.215069255375E-02   0.000000000000E+00   0.000000000000E+00   0.000000000000E+00   0.000000000000E+00   0.000000000000E+00
    0.757858283255E+05   0.211735787219E-02   0.211735787219E-02   0.000000000000E+00   0.000000000000E+00   0.000000000000E+00   0.000000000000E+00   0.000000000000E+00
    0.744838731561E+05   0.208454641489E-02   0.208454641489E-02   0.000000000000E+00   0.000000000000E+00   0.000000000000E+00   0.000000000000E+00   0.000000000000E+00
    0.732042847973E+05   0.205224989902E-02   0.205224989902E-02   0.000000000000E+00   0.000000000000E+00   0.000000000000E+00   0.000000000000E+00   0.000000000000E+00
    0.719466790005E+05   0.202046017378E-02   0.202046017378E-02   0.000000000000E+00   0.000000000000E+00   0.000000000000E+00   0.000000000000E+00   0.000000000000E+00
    0.707106781187E+05   0.198916921830E-02   0.198916921830E-02   0.000000000000E+00   0.000000000000E+00   0.000000000000E+00   0.000000000000E+00   0.000000000000E+00
    0.694959109921E+05   0.195836913953E-02   0.195836913953E-02   0.000000000000E+00   0.000000000000E+00   0.000000000000E+00   0.000000000000E+00   0.000000000000E+00
    0.683020128377E+05   0.192805217024E-02   0.192805217024E-02   0.000000000000E+00   0.000000000000E+00   0.000000000000E+00   0.000000000000E+00   0.000000000000E+00
    0.671286251390E+05   0.189821066696E-02   0.189821066696E-02   0.000000000000E+00   0.000000000000E+00   0.000000000000E+00   0.000000000000E+00   0.000000000000E+00
    0.659753955386E+05   0.186883710803E-02   0.186883710803E-02   0.000000000000E+00   0.000000000000E+00   0.000000000000E+00   0.000000000000E+00   0.000000000000E+00
    0.648419777326E+05   0.183992409160E-02   0.183992409160E-02   0.000000000000E+00   0.000000000000E+00   0.000000000000E+00   0.000000000000E+00   0.000000000000E+00
    0.637280313660E+05   0.181146433376E-02   0.181146433376E-02   0.000000000000E+00   0.000000000000E+00   0.000000000000E+00   0.000000000000E+00   0.000000000000E+00
    0.626332219312E+05   0.178345066663E-02   0.178345066663E-02   0.000000000000E+00   0.000000000000E+00   0.000000000000E+00   0.000000000000E+00   0.000000000000E+00
    0.615572206672E+05   0.175587603651E-02   0.175587603651E-02   0.000000000000E+00   0.000000000000E+00   0.000000000000E+00   0.000000000000E+00   0.000000000000E+00
    0.604997044610E+05   0.172873350201E-02   0.172873350201E-02   0.000000000000E+00   0.000000000000E+00   0.000000000000E+00   0.000000000000E+00   0.000000000000E+00
    0.594603557501E+05   0.170201623231E-02   0.170201623231E-02   0.000000000000E+00   0.000000000000E+00   0.000000000000E+00   0.000000000000E+00   0.000000000000E+00
    0.584388624281E+05   0.167571750536E-02   0.167571750536E-02   0.000000000000E+00   0.000000000000E+00   0.000000000000E+00   0.000000000000E+00   0.000000000000E+00
    0.574349177499E+05   0.164983070611E-02   0.164983070611E-02   0.000000000000E+00   0.000000000000E+00   0.000000000000E+00   0.000000000000E+00   0.000000000000E+00
    0.564482202403E+05   0.162434932487E-02   0.162434932487E-02   0.000000000000E+00   0.000000000000E+00   0.000000000000E+00   0.000000000000E+00   0.000000000000E+00
    0.554784736034E+05   0.159926695555E-02   0.159926695555E-02   0.000000000000E+00   0.000000000000E+00   0.000000000000E+00   0.000000000000E+00   0.000000000000E+00
    0.545253866333E+05   0.157457729402E-02   0.157457729402E-02   0.000000000000E+00   0.000000000000E+00   0.000000000000E+00   0.000000000000E+00   0.000000000000E+00
    0.535886731268E+05   0.155027413652E-02   0.155027413652E-02   0.000000000000E+00   0.000000000000E+00   0.000000000000E+00   0.000000000000E+00   0.000000000000E+00
    0.526680517977E+05   0.152635137798E-02   0.152635137798E-02   0.000000000000E+00   0.000000000000E+00   0.000000000000E+00   0.000000000000E+00   0.000000000000E+00
    0.517632461921E+05   0.150280301050E-02   0.150280301050E-02   0.000000000000E+00   0.000000000000E+00   0.000000000000E+00   0.000000000000E+00   0.000000000000E+00
    0.508739846051E+05   0.147962312178E-02   0.147962312178E-02   0.000000000000E+00   0.000000000000E+00   0.000000000000E+00   0.000000000000E+00   0.000000000000E+00
    0.500000000000E+05   0.145680589357E-02   0.145680589357E-02   0.000000000000E+00   0.000000000000E+00   0.000000000000E+00   0.000000000000E+00   0.000000000000E+00
    0.491410299273E+05   0.143434560018E-02   0.143434560018E-02   0.000000000000E+00   0.000000000000E+00   0.000000000000E+00   0.000000000000E+00   0.000000000000E+00
    0.482968164462E+05   0.141239852494E-02   0.141223660701E-02   0.161917934649E-06   0.000000000000E+00   0.000000000000E+00   0.000000000000E+00   0.000000000000E+00
    0.474671060475E+05   0.139094956729E-02   0.139047336905E-02   0.476198242031E-06   0.000000000000E+00   0.000000000000E+00   0.000000000000E+00   0.000000000000E+00
    0.466516495768E+05   0.136998435511E-02   0.136905042950E-02   0.933925610341E-06   0.000000000000E+00   0.000000000000E+00   0.000000000000E+00   0.000000000000E+00
    0.458502021602E+05   0.134948918887E-02   0.134796241833E-02   0.152677054060E-05   0.000000000000E+00   0.000000000000E+00   0.000000000000E+00   0.000000000000E+00
    0.450625231305E+05   0.132945099156E-02   0.132720405090E-02   0.224694066803E-05   0.000000000000E+00   0.000000000000E+00   0.000000000000E+00   0.000000000000E+00
    0.442883759551E+05   0.130985726368E-02   0.130677012656E-02   0.308713711688E-05   0.000000000000E+00   0.000000000000E+00   0.000000000000E+00   0.000000000000E+00
    0.435275281648E+05   0.129069604264E-02   0.128665552737E-02   0.404051526844E-05   0.000000000000E+00   0.000000000000E+00   0.000000000000E+00   0.000000000000E+00
    0.427797512841E+05   0.127195586615E-02   0.126685521674E-02   0.510064941030E-05   0.000000000000E+00   0.000000000000E+00   0.000000000000E+00   0.000000000000E+00
    0.420448207627E+05   0.125362573891E-02   0.124736423811E-02   0.626150080858E-05   0.000000000000E+00   0.000000000000E+00   0.000000000000E+00   0.000000000000E+00
    0.413225159077E+05   0.123569510251E-02   0.122817771370E-02   0.751738880738E-05   0.000000000000E+00   0.000000000000E+00   0.000000000000E+00   0.000000000000E+00
    0.406126198178E+05   0.121815380787E-02   0.120929084326E-02   0.886296461257E-05   0.000000000000E+00   0.000000000000E+00   0.000000000000E+00   0.000000000000E+00
    0.399149193178E+05   0.120099209026E-02   0.119069890279E-02   0.102931874618E-04   0.000000000000E+00   0.000000000000E+00   0.000000000000E+00   0.000000000000E+00
    0.392292048948E+05   0.118420054629E-02   0.117239724337E-02   0.118033029207E-04   0.000000000000E+00   0.000000000000E+00   0.000000000000E+00   0.000000000000E+00
    0.385552706352E+05   0.116777011297E-02   0.115438128989E-02   0.133888230789E-04   0.000000000000E+00   0.000000000000E+00   0.000000000000E+00   0.000000000000E+00
    0.378929141628E+05   0.115169204840E-02   0.113664653996E-02   0.150455084456E-04   0.000000000000E+00   0.000000000000E+00   0.000000000000E+00   0.000000000000E+00
    0.372419365781E+05   0.113595791404E-02   0.111918856267E-02   0.167693513714E-04   0.000000000000E+00   0.000000000000E+00   0.000000000000E+00   0.000000000000E+00
    0.366021423986E+05   0.112055955834E-02   0.110200299750E-02   0.185565608405E-04   0.000000000000E+00   0.000000000000E+00   0.000000000000E+00   0.000000000000E+00
    0.359733395003E+05   0.110548910165E-02   0.108508555315E-02   0.204035484989E-04   0.000000000000E+00   0.000000000000E+00   0.000000000000E+00   0.000000000000E+00
    0.353553390593E+05   0.109073892228E-02   0.106843200648E-02   0.223069157976E-04   0.000000000000E+00   0.000000000000E+00   0.000000000000E+00   0.000000000000E+00
    0.347479554961E+05   0.107630164352E-02   0.105203820138E-02   0.242634421433E-04   0.000000000000E+00   0.000000000000E+00   0.000000000000E+00   0.000000000000E+00
    0.341510064189E+05   0.106217012170E-02   0.103590004774E-02   0.262700739636E-04   0.000000000000E+00   0.000000000000E+00   0.000000000000E+00   0.000000000000E+00
    0.335643125695E+05   0.104833743494E-02   0.102001352034E-02   0.283239145997E-04   0.000000000000E+00   0.000000000000E+00   0.000000000000E+00   0.000000000000E+00
    0.329876977693E+05   0.103479687283E-02   0.100437465788E-02   0.304222149535E-04   0.000000000000E+00   0.000000000000E+00   0.000000000000E+00   0.000000000000E+00
    0.324209888663E+05   0.102154192673E-02   0.988979561905E-03   0.325623648203E-04   0.000000000000E+00   0.000000000000E+00   0.000000000000E+00   0.000000000000E+00
    0.318640156830E+05   0.100856628068E-02   0.973824395830E-03   0.347418848468E-04   0.000000000000E+00   0.000000000000E+00   0.000000000000E+00   0.000000000000E+00
    0.313166109656E+05   0.995863803001E-03   0.958905383940E-03   0.369584190608E-04   0.000000000000E+00   0.000000000000E+00   0.000000000000E+00   0.000000000000E+00
    0.307786103336E+05   0.983428538347E-03   0.944218810424E-03   0.392097279231E-04   0.000000000000E+00   0.000000000000E+00   0.000000000000E+00   0.000000000000E+00
    0.302498522305E+05   0.971254700272E-03   0.929761018413E-03   0.414936818584E-04   0.000000000000E+00   0.000000000000E+00   0.000000000000E+00   0.000000000000E+00
    0.297301778751E+05   0.959336664271E-03   0.915528409046E-03   0.438082552252E-04   0.000000000000E+00   0.000000000000E+00   0.000000000000E+00   0.000000000000E+00
    0.292194312140E+05   0.947668961225E-03   0.901517440537E-03   0.461515206885E-04   0.000000000000E+00   0.000000000000E+00   0.000000000000E+00   0.000000000000E+00
    0.287174588749E+05   0.936246271232E-03   0.887724627268E-03   0.485216439640E-04   0.000000000000E+00   0.000000000000E+00   0.000000000000E+00   0.000000000000E+00
    0.282241101202E+05   0.925063417795E-03   0.874146538892E-03   0.509168789035E-04   0.000000000000E+00   0.000000000000E+00   0.000000000000E+00   0.000000000000E+00
    0.277392368017E+05   0.914115362343E-03   0.860779799448E-03   0.533355628956E-04   0.000000000000E+00   0.000000000000E+00   0.000000000000E+00   0.000000000000E+00
    0.272626933166E+05   0.903397199054E-03   0.847621086498E-03   0.557761125561E-04   0.000000000000E+00   0.000000000000E+00   0.000000000000E+00   0.000000000000E+00
    0.267943365634E+05   0.892904149957E-03   0.834667130269E-03   0.582370196885E-04   0.000000000000E+00   0.000000000000E+00   0.000000000000E+00   0.000000000000E+00
    0.263340258989E+05   0.882631560305E-03   0.821914712813E-03   0.607168474917E-04   0.000000000000E+00   0.000000000000E+00   0.000000000000E+00   0.000000000000E+00
    0.258816230960E+05   0.872574894182E-03   0.809360667183E-03   0.632142269992E-04   0.000000000000E+00   0.000000000000E+00   0.000000000000E+00   0.000000000000E+00
    0.254369923026E+05   0.862729730347E-03   0.797001876616E-03   0.657278537305E-04   0.000000000000E+00   0.000000000000E+00   0.000000000000E+00   0.000000000000E+00
    0.250000000000E+05   0.853091758276E-03   0.784835273734E-03   0.682564845420E-04   0.000000000000E+00   0.000000000000E+00   0.000000000000E+00   0.000000000000E+00
    0.245705149636E+05   0.843656774419E-03   0.772857839757E-03   0.707989346611E-04   0.000000000000E+00   0.000000000000E+00   0.000000000000E+00   0.000000000000E+00
    0.241484082231E+05   0.834420678619E-03   0.761066603727E-03   0.733540748917E-04   0.000000000000E+00   0.000000000000E+00   0.000000000000E+00   0.000000000000E+00
    0.237335530238E+05   0.825379481298E-03   0.749458641745E-03   0.759208289798E-04   0.105739405453E-10   0.000000000000E+00   0.000000000000E+00   0.000000000000E+00
    0.233258247884E+05   0.816529299179E-03   0.738031076221E-03   0.784981711268E-04   0.518314315678E-10   0.000000000000E+00   0.000000000000E+00   0.000000000000E+00
    0.229251010801E+05   0.807866351254E-03   0.726781075136E-03   0.810851236422E-04   0.152475545581E-09   0.000000000000E+00   0.000000000000E+00   0.000000000000E+00
    0.225312615653E+05   0.799386954988E-03   0.715705851316E-03   0.836807547249E-04   0.348947041373E-09   0.000000000000E+00   0.000000000000E+00   0.000000000000E+00
    0.221441879776E+05   0.791087522729E-03   0.704802661717E-03   0.862841763663E-04   0.684646472380E-09   0.000000000000E+00   0.000000000000E+00   0.000000000000E+00
    0.217637640824E+05   0.782964558310E-03   0.694068806718E-03   0.888945423657E-04   0.120922658335E-08   0.000000000000E+00   0.000000000000E+00   0.000000000000E+00
    0.213898756421E+05   0.775014653834E-03   0.683501629435E-03   0.915110464517E-04   0.197794822955E-08   0.000000000000E+00   0.000000000000E+00   0.000000000000E+00
    0.210224103813E+05   0.767234486631E-03   0.673098515034E-03   0.941329205031E-04   0.305109378126E-08   0.000000000000E+00   0.000000000000E+00   0.000000000000E+00
    0.206612579539E+05   0.759620816363E-03   0.662856890068E-03   0.967594328624E-04   0.449343261659E-08   0.000000000000E+00   0.000000000000E+00   0.000000000000E+00
    0.203063099089E+05   0.752170482278E-03   0.652774221808E-03   0.993898867362E-04   0.637373386998E-08   0.000000000000E+00   0.000000000000E+00   0.000000000000E+00
    0.199574596589E+05   0.744880400604E-03   0.642848017603E-03   0.102023618678E-03   0.876432210171E-08   0.000000000000E+00   0.000000000000E+00   0.000000000000E+00
    0.196146024474E+05   0.737747562059E-03   0.633075824238E-03   0.104659997149E-03   0.117406719945E-07   0.000000000000E+00   0.000000000000E+00   0.000000000000E+00
    0.192776353176E+05   0.730769029488E-03   0.623455227304E-03   0.107298421146E-03   0.153810385742E-07   0.000000000000E+00   0.000000000000E+00   0.000000000000E+00
    0.189464570814E+05   0.723941935608E-03   0.613983850582E-03   0.109938318906E-03   0.197661197973E-07   0.000000000000E+00   0.000000000000E+00   0.000000000000E+00
    0.186209682890E+05   0.717263480853E-03   0.604659355438E-03   0.112579146667E-03   0.249787486592E-07   0.000000000000E+00   0.000000000000E+00   0.000000000000E+00
    0.183010711993E+05   0.710730931321E-03   0.595479440216E-03   0.115220387493E-03   0.311036122485E-07   0.000000000000E+00   0.000000000000E+00   0.000000000000E+00
    0.179866697501E+05   0.704341616808E-03   0.586441839658E-03   0.117861550155E-03   0.382269954224E-07   0.000000000000E+00   0.000000000000E+00   0.000000000000E+00
    0.176776695297E+05   0.698092928934E-03   0.577544324319E-03   0.120502168067E-03   0.464365469939E-07   0.000000000000E+00   0.000000000000E+00   0.000000000000E+00
    0.173739777480E+05   0.691982319337E-03   0.568784699999E-03   0.123141798271E-03   0.558210665209E-07   0.000000000000E+00   0.000000000000E+00   0.000000000000E+00
    0.170755032094E+05   0.686007297959E-03   0.560160807182E-03   0.125780020467E-03   0.664703099623E-07   0.000000000000E+00   0.000000000000E+00   0.000000000000E+00
    0.167821562848E+05   0.680165431393E-03   0.551670520483E-03   0.128416436098E-03   0.784748126250E-07   0.000000000000E+00   0.000000000000E+00   0.000000000000E+00
    0.164938488847E+05   0.674454341296E-03   0.543311748104E-03   0.131050667464E-03   0.919257279683E-07   0.000000000000E+00   0.000000000000E+00   0.000000000000E+00
    0.162104944331E+05   0.668871702877E-03   0.535082431303E-03   0.133682356893E-03   0.106914680959E-06   0.000000000000E+00   0.000000000000E+00   0.000000000000E+00
    0.159320078415E+05   0.663415243430E-03   0.526980543865E-03   0.136311165930E-03   0.123533634788E-06   0.000000000000E+00   0.000000000000E+00   0.000000000000E+00
    0.156583054828E+05   0.658082740940E-03   0.519004091585E-03   0.138936774585E-03   0.141874769867E-06   0.000000000000E+00   0.000000000000E+00   0.000000000000E+00
    0.153893051668E+05   0.652872022727E-03   0.511151111758E-03   0.141558880595E-03   0.162030374100E-06   0.000000000000E+00   0.000000000000E+00   0.000000000000E+00
    0.151249261152E+05   0.647780964156E-03   0.503419672681E-03   0.144177198731E-03   0.184092743549E-06   0.000000000000E+00   0.000000000000E+00   0.000000000000E+00
    0.148650889375E+05   0.642807487385E-03   0.495807873157E-03   0.146791460136E-03   0.208154092638E-06   0.000000000000E+00   0.000000000000E+00   0.000000000000E+00
    0.146097156070E+05   0.637949560162E-03   0.488313842008E-03   0.149401411681E-03   0.234306473153E-06   0.000000000000E+00   0.000000000000E+00   0.000000000000E+00
    0.143587294375E+05   0.633205194671E-03   0.480935737605E-03   0.152006815364E-03   0.262641701346E-06   0.000000000000E+00   0.000000000000E+00   0.000000000000E+00
    0.141120550601E+05   0.628572446410E-03   0.473671747390E-03   0.154607447728E-03   0.293251292493E-06   0.000000000000E+00   0.000000000000E+00   0.000000000000E+00
    0.138696184008E+05   0.624049413116E-03   0.466520087417E-03   0.157203099298E-03   0.326226402335E-06   0.000000000000E+00   0.000000000000E+00   0.000000000000E+00
    0.136313466583E+05   0.619634233729E-03   0.459479001898E-03   0.159793574056E-03   0.361657774858E-06   0.000000000000E+00   0.000000000000E+00   0.000000000000E+00
