#               Energy    Degradation (sum)     Degradation    1     Degradation    2     Degradation    3     Degradation    4     Degradation    5     Degradation    6
    0.100000000000E+06   0.430426728018E-03   0.430426728018E-03   0.000000000000E+00   0.000000000000E+00   0.000000000000E+00   0.000000000000E+00   0.000000000000E+00
    0.982820598545E+05   0.423607899761E-03   0.423607899761E-03   0.000000000000E+00   0.000000000000E+00   0.000000000000E+00   0.000000000000E+00   0.000000000000E+00
    0.965936328925E+05   0.416898194655E-03   0.416898194655E-03   0.000000000000E+00   0.000000000000E+00   0.000000000000E+00   0.000000000000E+00   0.000000000000E+00
    0.949342120951E+05   0.410295856991E-03   0.410295856991E-03   0.000000000000E+00   0.000000000000E+00   0.000000000000E+00   0.000000000000E+00   0.000000000000E+00
    0.933032991537E+05   0.403799159427E-03   0.403799159427E-03   0.000000000000E+00   0.000000000000E+00   0.000000000000E+00   0.000000000000E+00   0.000000000000E+00
    0.917004043205E+05   0.397406402535E-03   0.397406402535E-03   0.000000000000E+00   0.000000000000E+00   0.000000000000E+00   0.000000000000E+00   0.000000000000E+00
    0.901250462611E+05   0.391115914339E-03   0.391115914339E-03   0.000000000000E+00   0.000000000000E+00   0.000000000000E+00   0.000000000000E+00   0.000000000000E+00
    0.885767519102E+05   0.384926049879E-03   0.384926049879E-03   0.000000000000E+00   0.000000000000E+00   0.000000000000E+00   0.000000000000E+00   0.000000000000E+00
    0.870550563296E+05   0.378835190763E-03   0.378835190763E-03   0.000000000000E+00   0.000000000000E+00   0.000000000000E+00   0.000000000000E+00   0.000000000000E+00
    0.855595025683E+05   0.372841744746E-03   0.372841744746E-03   0.000000000000E+00   0.000000000000E+00   0.000000000000E+00   0.000000000000E+00   0.000000000000E+00
    0.840896415254E+05   0.366944145299E-03   0.366944145299E-03   0.000000000000E+00   0.000000000000E+00   0.000000000000E+00   0.000000000000E+00   0.000000000000E+00
    0.826450318154E+05   0.361140851192E-03   0.361140851192E-03   0.000000000000E+00   0.000000000000E+00   0.000000000000E+00   0.000000000000E+00   0.000000000000E+00
    0.812252396356E+05   0.355430346090E-03   0.355430346090E-03   0.000000000000E+00   0.000000000000E+00   0.000000000000E+00   0.000000000000E+00   0.000000000000E+00
    0.798298386357E+05   0.349811138141E-03   0.349811138141E-03   0.000000000000E+00   0.000000000000E+00   0.000000000000E+00   0.000000000000E+00   0.000000000000E+00
    0.784584097897E+05   0.344281759586E-03   0.344281759586E-03   0.000000000000E+00   0.000000000000E+00   0.000000000000E+00   0.000000000000E+00   0.000000000000E+00
    0.771105412704E+05   0.338840766363E-03   0.338840766363E-03   0.000000000000E+00   0.000000000000E+00   0.000000000000E+00   0.000000000000E+00   0.000000000000E+00
    0.757858283255E+05   0.333486737727E-03   0.333486737727E-03   0.000000000000E+00   0.000000000000E+00   0.000000000000E+00   0.000000000000E+00   0.000000000000E+00
    0.744838731561E+05   0.328218275869E-03   0.328218275869E-03   0.000000000000E+00   0.000000000000E+00   0.000000000000E+00   0.000000000000E+00   0.000000000000E+00
    0.732042847973E+05   0.323034005545E-03   0.323034005545E-03   0.000000000000E+00   0.000000000000E+00   0.000000000000E+00   0.000000000000E+00   0.000000000000E+00
    0.719466790005E+05   0.317932573712E-03   0.317932573712E-03   0.000000000000E+00   0.000000000000E+00   0.000000000000E+00   0.000000000000E+00   0.000000000000E+00
    0.707106781187E+05   0.312912649165E-03   0.312912649165E-03   0.000000000000E+00   0.000000000000E+00   0.000000000000E+00   0.000000000000E+00   0.000000000000E+00
    0.694959109921E+05   0.307972922185E-03   0.307972922185E-03   0.000000000000E+00   0.000000000000E+00   0.000000000000E+00   0.000000000000E+00   0.000000000000E+00
    0.683020128377E+05   0.303112104190E-03   0.303112104190E-03   0.000000000000E+00   0.000000000000E+00   0.000000000000E+00   0.000000000000E+00   0.000000000000E+00
    0.671286251390E+05   0.298328927393E-03   0.298328927393E-03   0.000000000000E+00   0.000000000000E+00   0.000000000000E+00   0.000000000000E+00   0.000000000000E+00
    0.659753955386E+05   0.293622144466E-03   0.293622144466E-03   0.000000000000E+00   0.000000000000E+00   0.000000000000E+00   0.000000000000E+00   0.000000000000E+00
    0.648419777326E+05   0.288990528204E-03   0.288990528204E-03   0.000000000000E+00   0.000000000000E+00   0.000000000000E+00   0.000000000000E+00   0.000000000000E+00
    0.637280313660E+05   0.284432871206E-03   0.284432871206E-03   0.000000000000E+00   0.000000000000E+00   0.000000000000E+00   0.000000000000E+00   0.000000000000E+00
    0.626332219312E+05   0.279947985546E-03   0.279947985546E-03   0.000000000000E+00   0.000000000000E+00   0.000000000000E+00   0.000000000000E+00   0.000000000000E+00
    0.615572206672E+05   0.275534702465E-03   0.275534702465E-03   0.000000000000E+00   0.000000000000E+00   0.000000000000E+00   0.000000000000E+00   0.000000000000E+00
    0.604997044610E+05   0.271191872055E-03   0.271191872055E-03   0.000000000000E+00   0.000000000000E+00   0.000000000000E+00   0.000000000000E+00   0.000000000000E+00
    0.594603557501E+05   0.266918362957E-03   0.266918362957E-03   0.000000000000E+00   0.000000000000E+00   0.000000000000E+00   0.000000000000E+00   0.000000000000E+00
    0.584388624281E+05   0.262713062058E-03   0.262713062058E-03   0.000000000000E+00   0.000000000000E+00   0.000000000000E+00   0.000000000000E+00   0.000000000000E+00
    0.574349177499E+05   0.258574874197E-03   0.258574874197E-03   0.000000000000E+00   0.000000000000E+00   0.000000000000E+00   0.000000000000E+00   0.000000000000E+00
    0.564482202403E+05   0.254502721875E-03   0.254502721875E-03   0.000000000000E+00   0.000000000000E+00   0.000000000000E+00   0.000000000000E+00   0.000000000000E+00
    0.554784736034E+05   0.250495544965E-03   0.250495544965E-03   0.000000000000E+00   0.000000000000E+00   0.000000000000E+00   0.000000000000E+00   0.000000000000E+00
    0.545253866333E+05   0.246552300435E-03   0.246552300435E-03   0.000000000000E+00   0.000000000000E+00   0.000000000000E+00   0.000000000000E+00   0.000000000000E+00
    0.535886731268E+05   0.242671962070E-03   0.242671962070E-03   0.000000000000E+00   0.000000000000E+00   0.000000000000E+00   0.000000000000E+00   0.000000000000E+00
    0.526680517977E+05   0.238853520199E-03   0.238853520199E-03   0.000000000000E+00   0.000000000000E+00   0.000000000000E+00   0.000000000000E+00   0.000000000000E+00
    0.517632461921E+05   0.235095981425E-03   0.235095981425E-03   0.000000000000E+00   0.000000000000E+00   0.000000000000E+00   0.000000000000E+00   0.000000000000E+00
    0.508739846051E+05   0.231398368367E-03   0.231398368367E-03   0.000000000000E+00   0.000000000000E+00   0.000000000000E+00   0.000000000000E+00   0.000000000000E+00
    0.500000000000E+05   0.227759719394E-03   0.227759719394E-03   0.000000000000E+00   0.000000000000E+00   0.000000000000E+00   0.000000000000E+00   0.000000000000E+00
    0.491410299273E+05   0.224179088377E-03   0.224179088377E-03   0.000000000000E+00   0.000000000000E+00   0.000000000000E+00   0.000000000000E+00   0.000000000000E+00
    0.482968164462E+05   0.220675547458E-03   0.220655544431E-03   0.200030269920E-07   0.000000000000E+00   0.000000000000E+00   0.000000000000E+00   0.000000000000E+00
    0.474671060475E+05   0.217246972700E-03   0.217188171674E-03   0.588010259777E-07   0.000000000000E+00   0.000000000000E+00   0.000000000000E+00   0.000000000000E+00
    0.466516495768E+05   0.213891336300E-03   0.213776068980E-03   0.115267319611E-06   0.000000000000E+00   0.000000000000E+00   0.000000000000E+00   0.000000000000E+00
    0.458502021602E+05   0.210606699430E-03   0.210418349744E-03   0.188349685867E-06   0.000000000000E+00   0.000000000000E+00   0.000000000000E+00   0.000000000000E+00
    0.450625231305E+05   0.207391205811E-03   0.207114141643E-03   0.277064168299E-06   0.000000000000E+00   0.000000000000E+00   0.000000000000E+00   0.000000000000E+00
    0.442883759551E+05   0.204243075934E-03   0.203862586407E-03   0.380489526539E-06   0.000000000000E+00   0.000000000000E+00   0.000000000000E+00   0.000000000000E+00
    0.435275281648E+05   0.201160601840E-03   0.200662839592E-03   0.497762248069E-06   0.000000000000E+00   0.000000000000E+00   0.000000000000E+00   0.000000000000E+00
    0.427797512841E+05   0.198142142409E-03   0.197514070356E-03   0.628072053542E-06   0.000000000000E+00   0.000000000000E+00   0.000000000000E+00   0.000000000000E+00
    0.420448207627E+05   0.195186119073E-03   0.194415461236E-03   0.770657837342E-06   0.000000000000E+00   0.000000000000E+00   0.000000000000E+00   0.000000000000E+00
    0.413225159077E+05   0.192291011930E-03   0.191366207937E-03   0.924803993028E-06   0.000000000000E+00   0.000000000000E+00   0.000000000000E+00   0.000000000000E+00
    0.406126198178E+05   0.189455356194E-03   0.188365519114E-03   0.108983708003E-05   0.000000000000E+00   0.000000000000E+00   0.000000000000E+00   0.000000000000E+00
    0.399149193178E+05   0.186677738958E-03   0.185412616165E-03   0.126512279369E-05   0.000000000000E+00   0.000000000000E+00   0.000000000000E+00   0.000000000000E+00
    0.392292048948E+05   0.183956796230E-03   0.182506733024E-03   0.145006320560E-05   0.000000000000E+00   0.000000000000E+00   0.000000000000E+00   0.000000000000E+00
    0.385552706352E+05   0.181291210205E-03   0.179647115959E-03   0.164409424532E-05   0.000000000000E+00   0.000000000000E+00   0.000000000000E+00   0.000000000000E+00
    0.378929141628E+05   0.178679706771E-03   0.176833023372E-03   0.184668339832E-05   0.000000000000E+00   0.000000000000E+00   0.000000000000E+00   0.000000000000E+00
    0.372419365781E+05   0.176121053200E-03   0.174063725603E-03   0.205732759761E-05   0.000000000000E+00   0.000000000000E+00   0.000000000000E+00   0.000000000000E+00
    0.366021423986E+05   0.173614056024E-03   0.171338504734E-03   0.227555128991E-05   0.000000000000E+00   0.000000000000E+00   0.000000000000E+00   0.000000000000E+00
    0.359733395003E+05   0.171157559064E-03   0.168656654406E-03   0.250090465857E-05   0.000000000000E+00   0.000000000000E+00   0.000000000000E+00   0.000000000000E+00
    0.353553390593E+05   0.168750441613E-03   0.166017479624E-03   0.273296198843E-05   0.000000000000E+00   0.000000000000E+00   0.000000000000E+00   0.000000000000E+00
    0.347479554961E+05   0.166391616739E-03   0.163420296580E-03   0.297132015866E-05   0.000000000000E+00   0.000000000000E+00   0.000000000000E+00   0.000000000000E+00
    0.341510064189E+05   0.164080029720E-03   0.160864432468E-03   0.321559725175E-05   0.000000000000E+00   0.000000000000E+00   0.000000000000E+00   0.000000000000E+00
    0.335643125695E+05   0.161814656575E-03   0.158349225307E-03   0.346543126785E-05   0.000000000000E+00   0.000000000000E+00   0.000000000000E+00   0.000000000000E+00
    0.329876977693E+05   0.159594502701E-03   0.155874023766E-03   0.372047893487E-05   0.000000000000E+00   0.000000000000E+00   0.000000000000E+00   0.000000000000E+00
    0.324209888663E+05   0.157418601600E-03   0.153438186995E-03   0.398041460570E-05   0.000000000000E+00   0.000000000000E+00   0.000000000000E+00   0.000000000000E+00
    0.318640156830E+05   0.155286013683E-03   0.151041084448E-03   0.424492923505E-05   0.000000000000E+00   0.000000000000E+00   0.000000000000E+00   0.000000000000E+00
    0.313166109656E+05   0.153195825155E-03   0.148682095726E-03   0.451372942883E-05   0.000000000000E+00   0.000000000000E+00   0.000000000000E+00   0.000000000000E+00
    0.307786103336E+05   0.151147146966E-03   0.146360610406E-03   0.478653656002E-05   0.000000000000E+00   0.000000000000E+00   0.000000000000E+00   0.000000000000E+00
    0.302498522305E+05   0.149139113828E-03   0.144076027882E-03   0.506308594529E-05   0.000000000000E+00   0.000000000000E+00   0.000000000000E+00   0.000000000000E+00
    0.297301778751E+05   0.147170883285E-03   0.141827757207E-03   0.534312607758E-05   0.000000000000E+00   0.000000000000E+00   0.000000000000E+00   0.000000000000E+00
    0.292194312140E+05   0.145241634846E-03   0.139615216937E-03   0.562641790981E-05   0.000000000000E+00   0.000000000000E+00   0.000000000000E+00   0.000000000000E+00
    0.287174588749E+05   0.143350569160E-03   0.137437834974E-03   0.591273418585E-05   0.000000000000E+00   0.000000000000E+00   0.000000000000E+00   0.000000000000E+00
    0.282241101202E+05   0.141496907237E-03   0.135295048422E-03   0.620185881484E-05   0.000000000000E+00   0.000000000000E+00   0.000000000000E+00   0.000000000000E+00
    0.277392368017E+05   0.139679889716E-03   0.133186303431E-03   0.649358628559E-05   0.000000000000E+00   0.000000000000E+00   0.000000000000E+00   0.000000000000E+00
    0.272626933166E+05   0.137898776173E-03   0.131111055055E-03   0.678772111798E-05   0.000000000000E+00   0.000000000000E+00   0.000000000000E+00   0.000000000000E+00
    0.267943365634E+05   0.136152844458E-03   0.129068767109E-03   0.708407734840E-05   0.000000000000E+00   0.000000000000E+00   0.000000000000E+00   0.000000000000E+00
    0.263340258989E+05   0.134441390071E-03   0.127058912024E-03   0.738247804696E-05   0.000000000000E+00   0.000000000000E+00   0.000000000000E+00   0.000000000000E+00
    0.258816230960E+05   0.132763725574E-03   0.125080970710E-03   0.768275486386E-05   0.000000000000E+00   0.000000000000E+00   0.000000000000E+00   0.000000000000E+00
    0.254369923026E+05   0.131119180022E-03   0.123134432419E-03   0.798474760297E-05   0.000000000000E+00   0.000000000000E+00   0.000000000000E+00   0.000000000000E+00
    0.250000000000E+05   0.129507098431E-03   0.121218794611E-03   0.828830382060E-05   0.000000000000E+00   0.000000000000E+00   0.000000000000E+00   0.000000000000E+00
    0.245705149636E+05   0.127924582232E-03   0.119333562819E-03   0.859101941300E-05   0.000000000000E+00   0.000000000000E+00   0.000000000000E+00   0.000000000000E+00
    0.241484082231E+05   0.126373333369E-03   0.117478250522E-03   0.889508284740E-05   0.000000000000E+00   0.000000000000E+00   0.000000000000E+00   0.000000000000E+00
    0.237335530238E+05   0.124852741034E-03   0.115652379014E-03   0.920036121212E-05   0.807656198169E-12   0.000000000000E+00   0.000000000000E+00   0.000000000000E+00
    0.233258247884E+05   0.123362209422E-03   0.113855477279E-03   0.950672799327E-05   0.414942644297E-11   0.000000000000E+00   0.000000000000E+00   0.000000000000E+00
    0.229251010801E+05   0.121901157221E-03   0.112087081868E-03   0.981406277497E-05   0.125770461173E-10   0.000000000000E+00   0.000000000000E+00   0.000000000000E+00
    0.225312615653E+05   0.120469017114E-03   0.110346736776E-03   0.101222509559E-04   0.293826651958E-10   0.000000000000E+00   0.000000000000E+00   0.000000000000E+00
    0.221441879776E+05   0.119065235322E-03   0.108633993319E-03   0.104311834815E-04   0.585217860541E-10   0.000000000000E+00   0.000000000000E+00   0.000000000000E+00
    0.217637640824E+05   0.117689271155E-03   0.106948410022E-03   0.107407565901E-04   0.104543237495E-09   0.000000000000E+00   0.000000000000E+00   0.000000000000E+00
    0.213898756421E+05   0.116340596595E-03   0.105289552497E-03   0.110508715730E-04   0.172525504305E-09   0.000000000000E+00   0.000000000000E+00   0.000000000000E+00
    0.210224103813E+05   0.115018695898E-03   0.103656993332E-03   0.113614345471E-04   0.268018805167E-09   0.000000000000E+00   0.000000000000E+00   0.000000000000E+00
    0.206612579539E+05   0.113723065210E-03   0.102050311979E-03   0.116723562391E-04   0.396992376323E-09   0.000000000000E+00   0.000000000000E+00   0.000000000000E+00
    0.203063099089E+05   0.112453212206E-03   0.100469094639E-03   0.119835517806E-04   0.565786475291E-09   0.000000000000E+00   0.000000000000E+00   0.000000000000E+00
    0.199574596589E+05   0.111208655741E-03   0.989129341577E-04   0.122949405146E-04   0.781068669113E-09   0.000000000000E+00   0.000000000000E+00   0.000000000000E+00
    0.196146024474E+05   0.109988925522E-03   0.973814299176E-04   0.126064458107E-04   0.104979401603E-08   0.000000000000E+00   0.000000000000E+00   0.000000000000E+00
    0.192776353176E+05   0.108793561789E-03   0.958741877305E-04   0.129179948901E-04   0.137916878879E-08   0.000000000000E+00   0.000000000000E+00   0.000000000000E+00
    0.189464570814E+05   0.107622115012E-03   0.943908197358E-04   0.132295186590E-04   0.177661742277E-08   0.000000000000E+00   0.000000000000E+00   0.000000000000E+00
    0.186209682890E+05   0.106474145601E-03   0.929309442981E-04   0.135409515503E-04   0.224975240312E-08   0.000000000000E+00   0.000000000000E+00   0.000000000000E+00
    0.183010711993E+05   0.105349223626E-03   0.914941859065E-04   0.138522313729E-04   0.280634683273E-08   0.000000000000E+00   0.000000000000E+00   0.000000000000E+00
    0.179866697501E+05   0.104246928554E-03   0.900801750764E-04   0.141632991686E-04   0.345430944781E-08   0.000000000000E+00   0.000000000000E+00   0.000000000000E+00
    0.176776695297E+05   0.103166848989E-03   0.886885482524E-04   0.144740990748E-04   0.420166186950E-08   0.000000000000E+00   0.000000000000E+00   0.000000000000E+00
    0.173739777480E+05   0.102108582426E-03   0.873189477125E-04   0.147845781953E-04   0.505651790013E-08   0.000000000000E+00   0.000000000000E+00   0.000000000000E+00
    0.170755032094E+05   0.101071735014E-03   0.859710214744E-04   0.150946864753E-04   0.602706469012E-08   0.000000000000E+00   0.000000000000E+00   0.000000000000E+00
    0.167821562848E+05   0.100055921333E-03   0.846444232033E-04   0.154043765837E-04   0.712154561768E-08   0.000000000000E+00   0.000000000000E+00   0.000000000000E+00
    0.164938488847E+05   0.990607641654E-04   0.833388121204E-04   0.157136038002E-04   0.834824473761E-08   0.000000000000E+00   0.000000000000E+00   0.000000000000E+00
    0.162104944331E+05   0.980858942943E-04   0.820538529142E-04   0.160223259074E-04   0.971547266849E-08   0.000000000000E+00   0.000000000000E+00   0.000000000000E+00
    0.159320078415E+05   0.971309502937E-04   0.807892156520E-04   0.163305030879E-04   0.112315537989E-07   0.000000000000E+00   0.000000000000E+00   0.000000000000E+00
    0.156583054828E+05   0.961955783347E-04   0.795445756934E-04   0.166380978265E-04   0.129048147043E-07   0.000000000000E+00   0.000000000000E+00   0.000000000000E+00
    0.153893051668E+05   0.952794319953E-04   0.783196136057E-04   0.169450748160E-04   0.147435736750E-07   0.000000000000E+00   0.000000000000E+00   0.000000000000E+00
    0.151249261152E+05   0.943821720779E-04   0.771140150792E-04   0.172514008674E-04   0.167561312649E-07   0.000000000000E+00   0.000000000000E+00   0.000000000000E+00
    0.148650889375E+05   0.935034664324E-04   0.759274708459E-04   0.175570448248E-04   0.189507617778E-07   0.000000000000E+00   0.000000000000E+00   0.000000000000E+00
    0.146097156070E+05   0.926429897855E-04   0.747596765975E-04   0.178619774824E-04   0.213357056154E-07   0.000000000000E+00   0.000000000000E+00   0.000000000000E+00
    0.143587294375E+05   0.918004235757E-04   0.736103329063E-04   0.181661715070E-04   0.239191624181E-07   0.000000000000E+00   0.000000000000E+00   0.000000000000E+00
    0.141120550601E+05   0.909754557937E-04   0.724791451464E-04   0.184696013623E-04   0.267092849341E-07   0.000000000000E+00   0.000000000000E+00   0.000000000000E+00
    0.138696184008E+05   0.901677808277E-04   0.713658234169E-04   0.187722432372E-04   0.297141735584E-07   0.000000000000E+00   0.000000000000E+00   0.000000000000E+00
    0.136313466583E+05   0.893770993139E-04   0.702700824655E-04   0.190740749769E-04   0.329418714894E-07   0.000000000000E+00   0.000000000000E+00   0.000000000000E+00
