#               Energy    Degradation (sum)     Degradation    1     Degradation    2     Degradation    3     Degradation    4     Degradation    5     Degradation    6
    0.100000000000E+06   0.226231217612E-02   0.226231217612E-02   0.000000000000E+00   0.000000000000E+00   0.000000000000E+00   0.000000000000E+00   0.000000000000E+00
    0.982820598545E+05   0.222701156621E-02   0.222701156621E-02   0.000000000000E+00   0.000000000000E+00   0.000000000000E+00   0.000000000000E+00   0.000000000000E+00
    0.965936328925E+05   0.219226805888E-02   0.219226805888E-02   0.000000000000E+00   0.000000000000E+00   0.000000000000E+00   0.000000000000E+00   0.000000000000E+00
    0.949342120951E+05   0.215807279548E-02   0.215807279548E-02   0.000000000000E+00   0.000000000000E+00   0.000000000000E+00   0.000000000000E+00   0.000000000000E+00
    0.933032991537E+05   0.212441705912E-02   0.212441705912E-02   0.000000000000E+00   0.000000000000E+00   0.000000000000E+00   0.000000000000E+00   0.000000000000E+00
    0.917004043205E+05   0.209129227235E-02   0.209129227235E-02   0.000000000000E+00   0.000000000000E+00   0.000000000000E+00   0.000000000000E+00   0.000000000000E+00
    0.901250462611E+05   0.205868999497E-02   0.205868999497E-02   0.000000000000E+00   0.000000000000E+00   0.000000000000E+00   0.000000000000E+00   0.000000000000E+00
    0.885767519102E+05   0.202660192175E-02   0.202660192175E-02   0.000000000000E+00   0.000000000000E+00   0.000000000000E+00   0.000000000000E+00   0.000000000000E+00
    0.870550563296E+05   0.199501988035E-02   0.199501988035E-02   0.000000000000E+00   0.000000000000E+00   0.000000000000E+00   0.000000000000E+00   0.000000000000E+00
    0.855595025683E+05   0.196393582908E-02   0.196393582908E-02   0.000000000000E+00   0.000000000000E+00   0.000000000000E+00   0.000000000000E+00   0.000000000000E+00
    0.840896415254E+05   0.193334185490E-02   0.193334185490E-02   0.000000000000E+00   0.000000000000E+00   0.000000000000E+00   0.000000000000E+00   0.000000000000E+00
    0.826450318154E+05   0.190323017128E-02   0.190323017128E-02   0.000000000000E+00   0.000000000000E+00   0.000000000000E+00   0.000000000000E+00   0.000000000000E+00
    0.812252396356E+05   0.187359311619E-02   0.187359311619E-02   0.000000000000E+00   0.000000000000E+00   0.000000000000E+00   0.000000000000E+00   0.000000000000E+00
    0.798298386357E+05   0.184442315012E-02   0.184442315012E-02   0.000000000000E+00   0.000000000000E+00   0.000000000000E+00   0.000000000000E+00   0.000000000000E+00
    0.784584097897E+05   0.181571285407E-02   0.181571285407E-02   0.000000000000E+00   0.000000000000E+00   0.000000000000E+00   0.000000000000E+00   0.000000000000E+00
    0.771105412704E+05   0.178745492764E-02   0.178745492764E-02   0.000000000000E+00   0.000000000000E+00   0.000000000000E+00   0.000000000000E+00   0.000000000000E+00
    0.757858283255E+05   0.175964218712E-02   0.175964218712E-02   0.000000000000E+00   0.000000000000E+00   0.000000000000E+00   0.000000000000E+00   0.000000000000E+00
    0.744838731561E+05   0.173226756361E-02   0.173226756361E-02   0.000000000000E+00   0.000000000000E+00   0.000000000000E+00   0.000000000000E+00   0.000000000000E+00
    0.732042847973E+05   0.170532410119E-02   0.170532410119E-02   0.000000000000E+00   0.000000000000E+00   0.000000000000E+00   0.000000000000E+00   0.000000000000E+00
    0.719466790005E+05   0.167880495506E-02   0.167880495506E-02   0.000000000000E+00   0.000000000000E+00   0.000000000000E+00   0.000000000000E+00   0.000000000000E+00
    0.707106781187E+05   0.165270338983E-02   0.165270338983E-02   0.000000000000E+00   0.000000000000E+00   0.000000000000E+00   0.000000000000E+00   0.000000000000E+00
    0.694959109921E+05   0.162701277768E-02   0.162701277768E-02   0.000000000000E+00   0.000000000000E+00   0.000000000000E+00   0.000000000000E+00   0.000000000000E+00
    0.683020128377E+05   0.160172659670E-02   0.160172659670E-02   0.000000000000E+00   0.000000000000E+00   0.000000000000E+00   0.000000000000E+00   0.000000000000E+00
    0.671286251390E+05   0.157683842914E-02   0.157683842914E-02   0.000000000000E+00   0.000000000000E+00   0.000000000000E+00   0.000000000000E+00   0.000000000000E+00
    0.659753955386E+05   0.155234195977E-02   0.155234195977E-02   0.000000000000E+00   0.000000000000E+00   0.000000000000E+00   0.000000000000E+00   0.000000000000E+00
    0.648419777326E+05   0.152823097422E-02   0.152823097422E-02   0.000000000000E+00   0.000000000000E+00   0.000000000000E+00   0.000000000000E+00   0.000000000000E+00
    0.637280313660E+05   0.150449935734E-02   0.150449935734E-02   0.000000000000E+00   0.000000000000E+00   0.000000000000E+00   0.000000000000E+00   0.000000000000E+00
    0.626332219312E+05   0.148114109166E-02   0.148114109166E-02   0.000000000000E+00   0.000000000000E+00   0.000000000000E+00   0.000000000000E+00   0.000000000000E+00
    0.615572206672E+05   0.145815025576E-02   0.145815025576E-02   0.000000000000E+00   0.000000000000E+00   0.000000000000E+00   0.000000000000E+00   0.000000000000E+00
    0.604997044610E+05   0.143552102277E-02   0.143552102277E-02   0.000000000000E+00   0.000000000000E+00   0.000000000000E+00   0.000000000000E+00   0.000000000000E+00
    0.594603557501E+05   0.141324765885E-02   0.141324765885E-02   0.000000000000E+00   0.000000000000E+00   0.000000000000E+00   0.000000000000E+00   0.000000000000E+00
    0.584388624281E+05   0.139132452166E-02   0.139132452166E-02   0.000000000000E+00   0.000000000000E+00   0.000000000000E+00   0.000000000000E+00   0.000000000000E+00
    0.574349177499E+05   0.136974605893E-02   0.136974605893E-02   0.000000000000E+00   0.000000000000E+00   0.000000000000E+00   0.000000000000E+00   0.000000000000E+00
    0.564482202403E+05   0.134850680701E-02   0.134850680701E-02   0.000000000000E+00   0.000000000000E+00   0.000000000000E+00   0.000000000000E+00   0.000000000000E+00
    0.554784736034E+05   0.132760138942E-02   0.132760138942E-02   0.000000000000E+00   0.000000000000E+00   0.000000000000E+00   0.000000000000E+00   0.000000000000E+00
    0.545253866333E+05   0.130702451549E-02   0.130702451549E-02   0.000000000000E+00   0.000000000000E+00   0.000000000000E+00   0.000000000000E+00   0.000000000000E+00
    0.535886731268E+05   0.128677097894E-02   0.128677097894E-02   0.000000000000E+00   0.000000000000E+00   0.000000000000E+00   0.000000000000E+00   0.000000000000E+00
    0.526680517977E+05   0.126683565656E-02   0.126683565656E-02   0.000000000000E+00   0.000000000000E+00   0.000000000000E+00   0.000000000000E+00   0.000000000000E+00
    0.517632461921E+05   0.124721350687E-02   0.124721350687E-02   0.000000000000E+00   0.000000000000E+00   0.000000000000E+00   0.000000000000E+00   0.000000000000E+00
    0.508739846051E+05   0.122789956880E-02   0.122789956880E-02   0.000000000000E+00   0.000000000000E+00   0.000000000000E+00   0.000000000000E+00   0.000000000000E+00
    0.500000000000E+05   0.120888896040E-02   0.120888896040E-02   0.000000000000E+00   0.000000000000E+00   0.000000000000E+00   0.000000000000E+00   0.000000000000E+00
    0.491410299273E+05   0.119017687759E-02   0.119017687759E-02   0.000000000000E+00   0.000000000000E+00   0.000000000000E+00   0.000000000000E+00   0.000000000000E+00
    0.482968164462E+05   0.117188732057E-02   0.117175859288E-02   0.128727685898E-06   0.000000000000E+00   0.000000000000E+00   0.000000000000E+00   0.000000000000E+00
    0.474671060475E+05   0.115400800545E-02   0.115362945416E-02   0.378551289615E-06   0.000000000000E+00   0.000000000000E+00   0.000000000000E+00   0.000000000000E+00
    0.466516495768E+05   0.113652723438E-02   0.113578488350E-02   0.742350875016E-06   0.000000000000E+00   0.000000000000E+00   0.000000000000E+00   0.000000000000E+00
    0.458502021602E+05   0.111943385077E-02   0.111822037595E-02   0.121347481963E-05   0.000000000000E+00   0.000000000000E+00   0.000000000000E+00   0.000000000000E+00
    0.450625231305E+05   0.110271719924E-02   0.110093149834E-02   0.178570089999E-05   0.000000000000E+00   0.000000000000E+00   0.000000000000E+00   0.000000000000E+00
    0.442883759551E+05   0.108636708960E-02   0.108391388820E-02   0.245320140081E-05   0.000000000000E+00   0.000000000000E+00   0.000000000000E+00   0.000000000000E+00
    0.435275281648E+05   0.107037376432E-02   0.106716325256E-02   0.321051175205E-05   0.000000000000E+00   0.000000000000E+00   0.000000000000E+00   0.000000000000E+00
    0.427797512841E+05   0.105472786914E-02   0.105067536687E-02   0.405250226857E-05   0.000000000000E+00   0.000000000000E+00   0.000000000000E+00   0.000000000000E+00
    0.420448207627E+05   0.103942042652E-02   0.103444607389E-02   0.497435262606E-05   0.000000000000E+00   0.000000000000E+00   0.000000000000E+00   0.000000000000E+00
    0.413225159077E+05   0.102444281137E-02   0.101847128262E-02   0.597152875689E-05   0.000000000000E+00   0.000000000000E+00   0.000000000000E+00   0.000000000000E+00
    0.406126198178E+05   0.100978672911E-02   0.100274696722E-02   0.703976189161E-05   0.000000000000E+00   0.000000000000E+00   0.000000000000E+00   0.000000000000E+00
    0.399149193178E+05   0.995444195500E-03   0.987269165992E-03   0.817502950803E-05   0.000000000000E+00   0.000000000000E+00   0.000000000000E+00   0.000000000000E+00
    0.392292048948E+05   0.981407518325E-03   0.972033980345E-03   0.937353797991E-05   0.000000000000E+00   0.000000000000E+00   0.000000000000E+00   0.000000000000E+00
    0.385552706352E+05   0.967669280513E-03   0.957037573769E-03   0.106317067440E-04   0.000000000000E+00   0.000000000000E+00   0.000000000000E+00   0.000000000000E+00
    0.378929141628E+05   0.954222324676E-03   0.942276170850E-03   0.119461538261E-04   0.000000000000E+00   0.000000000000E+00   0.000000000000E+00   0.000000000000E+00
    0.372419365781E+05   0.941059738882E-03   0.927746056295E-03   0.133136825866E-04   0.000000000000E+00   0.000000000000E+00   0.000000000000E+00   0.000000000000E+00
    0.366021423986E+05   0.928174843524E-03   0.913443573962E-03   0.147312695620E-04   0.000000000000E+00   0.000000000000E+00   0.000000000000E+00   0.000000000000E+00
    0.359733395003E+05   0.915561179213E-03   0.899365125918E-03   0.161960532941E-04   0.000000000000E+00   0.000000000000E+00   0.000000000000E+00   0.000000000000E+00
    0.353553390593E+05   0.903212495554E-03   0.885507171503E-03   0.177053240504E-04   0.000000000000E+00   0.000000000000E+00   0.000000000000E+00   0.000000000000E+00
    0.347479554961E+05   0.891122740765E-03   0.871866226415E-03   0.192565143506E-04   0.000000000000E+00   0.000000000000E+00   0.000000000000E+00   0.000000000000E+00
    0.341510064189E+05   0.879286052027E-03   0.858438861805E-03   0.208471902225E-04   0.000000000000E+00   0.000000000000E+00   0.000000000000E+00   0.000000000000E+00
    0.335643125695E+05   0.867696746514E-03   0.845221703392E-03   0.224750431217E-04   0.000000000000E+00   0.000000000000E+00   0.000000000000E+00   0.000000000000E+00
    0.329876977693E+05   0.856349313041E-03   0.832211430589E-03   0.241378824523E-04   0.000000000000E+00   0.000000000000E+00   0.000000000000E+00   0.000000000000E+00
    0.324209888663E+05   0.845238404277E-03   0.819404775641E-03   0.258336286367E-04   0.000000000000E+00   0.000000000000E+00   0.000000000000E+00   0.000000000000E+00
    0.318640156830E+05   0.834358829465E-03   0.806798522780E-03   0.275603066853E-04   0.000000000000E+00   0.000000000000E+00   0.000000000000E+00   0.000000000000E+00
    0.313166109656E+05   0.823705547618E-03   0.794389507395E-03   0.293160402226E-04   0.000000000000E+00   0.000000000000E+00   0.000000000000E+00   0.000000000000E+00
    0.307786103336E+05   0.813273661144E-03   0.782174615213E-03   0.310990459316E-04   0.000000000000E+00   0.000000000000E+00   0.000000000000E+00   0.000000000000E+00
    0.302498522305E+05   0.803058409869E-03   0.770150781488E-03   0.329076283804E-04   0.000000000000E+00   0.000000000000E+00   0.000000000000E+00   0.000000000000E+00
    0.297301778751E+05   0.793055165417E-03   0.758314990217E-03   0.347401752001E-04   0.000000000000E+00   0.000000000000E+00   0.000000000000E+00   0.000000000000E+00
    0.292194312140E+05   0.783259425939E-03   0.746664273354E-03   0.365951525849E-04   0.000000000000E+00   0.000000000000E+00   0.000000000000E+00   0.000000000000E+00
    0.287174588749E+05   0.773666811132E-03   0.735195710043E-03   0.384711010886E-04   0.000000000000E+00   0.000000000000E+00   0.000000000000E+00   0.000000000000E+00
    0.282241101202E+05   0.764273057561E-03   0.723906425867E-03   0.403666316947E-04   0.000000000000E+00   0.000000000000E+00   0.000000000000E+00   0.000000000000E+00
    0.277392368017E+05   0.755074014237E-03   0.712793592100E-03   0.422804221374E-04   0.000000000000E+00   0.000000000000E+00   0.000000000000E+00   0.000000000000E+00
    0.272626933166E+05   0.746065638437E-03   0.701854424981E-03   0.442112134562E-04   0.000000000000E+00   0.000000000000E+00   0.000000000000E+00   0.000000000000E+00
    0.267943365634E+05   0.737243991755E-03   0.691086184992E-03   0.461578067638E-04   0.000000000000E+00   0.000000000000E+00   0.000000000000E+00   0.000000000000E+00
    0.263340258989E+05   0.728605236363E-03   0.680486176149E-03   0.481190602142E-04   0.000000000000E+00   0.000000000000E+00   0.000000000000E+00   0.000000000000E+00
    0.258816230960E+05   0.720145631465E-03   0.670051745311E-03   0.500938861540E-04   0.000000000000E+00   0.000000000000E+00   0.000000000000E+00   0.000000000000E+00
    0.254369923026E+05   0.711861529934E-03   0.659780281490E-03   0.520812484445E-04   0.000000000000E+00   0.000000000000E+00   0.000000000000E+00   0.000000000000E+00
    0.250000000000E+05   0.703749375121E-03   0.649669215178E-03   0.540801599426E-04   0.000000000000E+00   0.000000000000E+00   0.000000000000E+00   0.000000000000E+00
    0.245705149636E+05   0.695803255163E-03   0.639716017687E-03   0.560872374751E-04   0.000000000000E+00   0.000000000000E+00   0.000000000000E+00   0.000000000000E+00
    0.241484082231E+05   0.688022299302E-03   0.629918200494E-03   0.581040988082E-04   0.000000000000E+00   0.000000000000E+00   0.000000000000E+00   0.000000000000E+00
    0.237335530238E+05   0.680403210850E-03   0.620273314596E-03   0.601298885016E-04   0.775246124603E-11   0.000000000000E+00   0.000000000000E+00   0.000000000000E+00
    0.233258247884E+05   0.672942779574E-03   0.610778949886E-03   0.621637914385E-04   0.382495443880E-10   0.000000000000E+00   0.000000000000E+00   0.000000000000E+00
    0.229251010801E+05   0.665637878477E-03   0.601432734525E-03   0.642050309479E-04   0.113003370874E-09   0.000000000000E+00   0.000000000000E+00   0.000000000000E+00
    0.225312615653E+05   0.658485460754E-03   0.592232334333E-03   0.662528670285E-04   0.259392428051E-09   0.000000000000E+00   0.000000000000E+00   0.000000000000E+00
    0.221441879776E+05   0.651482556924E-03   0.583175452185E-03   0.683065946707E-04   0.510067572737E-09   0.000000000000E+00   0.000000000000E+00   0.000000000000E+00
    0.217637640824E+05   0.644626272106E-03   0.574259827425E-03   0.703655422688E-04   0.902411815536E-09   0.000000000000E+00   0.000000000000E+00   0.000000000000E+00
    0.213898756421E+05   0.637913783441E-03   0.565483235276E-03   0.724290701169E-04   0.147804870464E-08   0.000000000000E+00   0.000000000000E+00   0.000000000000E+00
    0.210224103813E+05   0.631342337651E-03   0.556843486271E-03   0.744965689853E-04   0.228239468599E-08   0.000000000000E+00   0.000000000000E+00   0.000000000000E+00
    0.206612579539E+05   0.624909248711E-03   0.548338425689E-03   0.765674587704E-04   0.336425130719E-08   0.000000000000E+00   0.000000000000E+00   0.000000000000E+00
    0.203063099089E+05   0.618611895648E-03   0.539965933000E-03   0.786411872146E-04   0.477543356492E-08   0.000000000000E+00   0.000000000000E+00   0.000000000000E+00
    0.199574596589E+05   0.612447720440E-03   0.531723921317E-03   0.807172286914E-04   0.657043107705E-08   0.000000000000E+00   0.000000000000E+00   0.000000000000E+00
    0.196146024474E+05   0.606414226013E-03   0.523610336862E-03   0.827950830526E-04   0.880609909816E-08   0.000000000000E+00   0.000000000000E+00   0.000000000000E+00
    0.192776353176E+05   0.600508974343E-03   0.515623158434E-03   0.848742745326E-04   0.115413766965E-07   0.000000000000E+00   0.000000000000E+00   0.000000000000E+00
    0.189464570814E+05   0.594729584629E-03   0.507760396892E-03   0.869543507075E-04   0.148370296764E-07   0.000000000000E+00   0.000000000000E+00   0.000000000000E+00
    0.186209682890E+05   0.589073731564E-03   0.500020094642E-03   0.890348815054E-04   0.187554160651E-07   0.000000000000E+00   0.000000000000E+00   0.000000000000E+00
    0.183010711993E+05   0.583539143672E-03   0.492400325134E-03   0.911154582649E-04   0.233602721964E-07   0.000000000000E+00   0.000000000000E+00   0.000000000000E+00
    0.179866697501E+05   0.578123601723E-03   0.484899192366E-03   0.931956928391E-04   0.287165176087E-07   0.000000000000E+00   0.000000000000E+00   0.000000000000E+00
    0.176776695297E+05   0.572824937215E-03   0.477514830396E-03   0.952752167423E-04   0.348900771441E-07   0.000000000000E+00   0.000000000000E+00   0.000000000000E+00
    0.173739777480E+05   0.567641030921E-03   0.470245402864E-03   0.973536803379E-04   0.419477187872E-07   0.000000000000E+00   0.000000000000E+00   0.000000000000E+00
    0.170755032094E+05   0.562569811489E-03   0.463089102519E-03   0.994307520638E-04   0.499569059149E-07   0.000000000000E+00   0.000000000000E+00   0.000000000000E+00
    0.167821562848E+05   0.557609254113E-03   0.456044150756E-03   0.101506117694E-03   0.589856627517E-07   0.000000000000E+00   0.000000000000E+00   0.000000000000E+00
    0.164938488847E+05   0.552757379245E-03   0.449108797156E-03   0.103579479637E-03   0.691024519323E-07   0.000000000000E+00   0.000000000000E+00   0.000000000000E+00
    0.162104944331E+05   0.548012251364E-03   0.442281319042E-03   0.105650556259E-03   0.803760631735E-07   0.000000000000E+00   0.000000000000E+00   0.000000000000E+00
    0.159320078415E+05   0.543371977791E-03   0.435560021029E-03   0.107719081249E-03   0.928755121440E-07   0.000000000000E+00   0.000000000000E+00   0.000000000000E+00
    0.156583054828E+05   0.538834707551E-03   0.428943234598E-03   0.109784803005E-03   0.106669948702E-06   0.000000000000E+00   0.000000000000E+00   0.000000000000E+00
    0.153893051668E+05   0.534398630278E-03   0.422429317658E-03   0.111847484046E-03   0.121828573740E-06   0.000000000000E+00   0.000000000000E+00   0.000000000000E+00
    0.151249261152E+05   0.530061975158E-03   0.416016654134E-03   0.113906900460E-03   0.138420563951E-06   0.000000000000E+00   0.000000000000E+00   0.000000000000E+00
    0.148650889375E+05   0.525823009915E-03   0.409703653546E-03   0.115962841365E-03   0.156515003868E-06   0.000000000000E+00   0.000000000000E+00   0.000000000000E+00
    0.146097156070E+05   0.521680039831E-03   0.403488750602E-03   0.118015108404E-03   0.176180824617E-06   0.000000000000E+00   0.000000000000E+00   0.000000000000E+00
    0.143587294375E+05   0.517631406801E-03   0.397370404800E-03   0.120063515253E-03   0.197486748827E-06   0.000000000000E+00   0.000000000000E+00   0.000000000000E+00
    0.141120550601E+05   0.513675488427E-03   0.391347100029E-03   0.122107887156E-03   0.220501241239E-06   0.000000000000E+00   0.000000000000E+00   0.000000000000E+00
    0.138696184008E+05   0.509810697130E-03   0.385417344185E-03   0.124148060481E-03   0.245292464537E-06   0.000000000000E+00   0.000000000000E+00   0.000000000000E+00
    0.136313466583E+05   0.506035479312E-03   0.379579668782E-03   0.126183882290E-03   0.271928240018E-06   0.000000000000E+00   0.000000000000E+00   0.000000000000E+00
