###
### i, T, SiInteg[T] Si[T]
###
0	100000.	367.70626018022244	367.70626018022244
1	98282.05985452511	373.51224427346654	373.5122442734664
2	96593.63289248454	379.4087879405999	379.4087879406
3	94934.21209505192	385.3972809593532	385.39728095935345
4	93303.29915368072	391.479133951732	391.479133951732
5	91700.4043204671	397.6557786857143	397.6557786857142
6	90125.04626108301	403.9286683810501	403.9286683810499
7	88576.75191023605	410.2992780192092	410.2992780192091
8	87055.05632961239	416.7691046575275	416.7691046575275
9	85559.5025682602	423.3396677476007	423.33966774760074
10	84089.64152537142	430.0125094579765	430.01250945797653
11	82645.03181542114	436.7891950011936	436.7891950011933
12	81225.23963562353	443.6713129652173	443.67131296521745
13	79829.83863566496	450.66047564932927	450.66047564932916
14	78458.40978967505	457.75831940450854	457.7583194045086
15	77110.54127039702	464.9665049783722	464.96650497837214
16	75785.82832551986	472.2867178647147	472.2867178647145
17	74483.87315613507	479.7206686577013	479.7206686577013
18	73204.28479728123	487.2700934107745	487.2700934107746
19	71946.67900054096	494.9367540003149	494.9367540003147
20	70710.67811865472	502.7224384941159	502.722438494116
21	69495.91099211681	510.628961524731	510.62896152473104
22	68302.01283771973	518.6581646677314	518.6581646677314
23	67128.62513901314	526.8119168249448	526.8119168249448
24	65975.39553864466	535.0921146127182	535.0921146127183
25	64841.97773255044	543.5006827552639	543.5006827552639
26	63728.031365963056	552.0395744831408	552.0395744831404
27	62633.22193120635	560.7107719369253	560.7107719369253
28	61557.22066724577	569.5162865761341	569.5162865761342
29	60499.70446096459	578.4581595934393	578.4581595934392
30	59460.355750136005	587.5384623342442	587.5384623342442
31	58438.86242806223	596.7592967216705	596.7592967216706
32	57434.91774985169	606.1227956870109	606.1227956870107
33	56448.2202403065	615.6311236057023	615.6311236057024
34	55478.47360339219	625.2864767388826	625.2864767388826
35	54525.38663326282	635.091083680573	635.0910836805729
36	53588.67312681459	645.047205810556	645.0472058105559
37	52668.05179774172	655.1571377529966	655.1571377529964
38	51763.246192068815	665.4232078408627	665.4232078408626
39	50873.98460513426	675.8477785862055	675.8477785862054
40	49999.99999999994	686.4332471563488	686.433247156349
41	49141.0299272625	697.1820458560501	697.18204585605
42	48296.81644624223	708.0966426156814	708.096642615681
43	47467.106047525915	719.1795414854926	719.1795414854926
44	46651.649576840304	730.4332831360101	730.4332831360099
45	45850.20216023349	741.8604453646188	741.8604453646188
46	45062.523130541456	753.4636436083986	753.4636436083987
47	44288.375955117976	765.2455314632521	765.2455314632517
48	43527.52816480614	777.2088012093883	777.2088012093881
49	42779.75128413005	789.3561843432188	789.3561843432187
50	42044.82076268567	801.6904521157082	801.6904521157087
51	41322.51590771053	814.2144160772481	814.214416077248
52	40612.61981781171	826.9309286290903	826.93092862909
53	39914.919317832435	839.8428835814079	839.842883581408
54	39229.20489483748	852.9532167180292	852.953216718029
55	38555.27063519847	866.2649063678892	866.2649063678891
56	37892.9141627599	879.7809739832642	879.7809739832644
57	37241.93657806751	893.5044847248287	893.5044847248283
58	36602.142398640586	907.4385480535838	907.4385480535839
59	35973.33950027045	921.5863183297198	921.5863183297199
60	35355.33905932732	935.9509954184399	935.9509954184393
61	34747.95549605838	950.535825302807	950.535825302807
62	34151.00641885983	965.3441007036653	965.3441007036646
63	33564.31256950653	980.3791617066533	980.3791617066538
64	32987.69776932228	995.6443963963985	995.6443963963984
65	32420.98886627517	1011.1432414978816	1011.1432414978816
66	31864.015682981477	1026.879183025071	1026.8791830250711
67	31316.610965603126	1042.8557569368165	1042.8557569368163
68	30778.610333622837	1059.0765498000774	1059.0765498000776
69	30249.852230482244	1075.5451994605078	1075.5451994605078
70	29730.177875067955	1092.2653957204354	1092.2653957204357
71	29219.431214031072	1109.2408810242805	1109.2408810242805
72	28717.4588749258	1126.4754511514316	1126.4754511514311
73	28224.110120153207	1143.972955916628	1143.9729559166276
74	27739.23680169605	1161.737299877867	1161.7372998778667
75	27262.69331663137	1179.7724430518715	1179.772443051871
76	26794.33656340726	1198.082401637138	1198.0824016371378
77	26334.025898870826	1216.671248744599	1216.6712487445989
78	25881.623096034375	1235.5431151359107	1235.5431151359098
79	25436.992302567098	1254.702189969398	1254.7021899693978
80	24999.999999999945	1274.1527215536694	1274.1527215536694
81	24570.51496363122	1293.8990181089137	1293.8990181089139
82	24148.408223121085	1313.9454485358976	1313.9454485358974
83	23733.55302376293	1334.296443192673	1334.2964431926725
84	23325.82478842014	1354.9564946790003	1354.9564946790001
85	22925.101080116736	1375.9301586284967	1375.930158628496
86	22531.26156527071	1397.2220545085	1397.2220545084995
87	22144.18797755897	1418.8368664276627	1418.836866427663
88	21763.764082403042	1440.779343951263	1440.779343951263
89	21389.875642064995	1463.0543029242133	1463.0543029242135
90	21022.410381342805	1485.6666263017867	1485.666626301786
91	20661.257953855235	1508.6212649880051	1508.6212649880051
92	20306.30990890584	1531.923238681709	1531.9232386817089
93	19957.4596589162	1555.5776367302537	1555.5776367302533
94	19614.602447418718	1579.5896189908206	1579.5896189908203
95	19277.635317599215	1603.964416699317	1603.964416699317
96	18946.457081379922	1628.7073333468152	1628.707333346815
97	18620.968289033728	1653.8237455634905	1653.8237455634903
98	18301.071199320264	1679.3191040100292	1679.3191040100282
99	17986.6697501352	1705.1989342764298	1705.1989342764298
100	17677.66952966364	1731.4688377881728	1731.4688377881723
101	17373.977748029167	1758.1344927196596	1758.1344927196587
102	17075.503209429895	1785.2016549148886	1785.2016549148884
103	16782.156284753248	1812.676158815277	1812.6761588152767
104	16493.84888466113	1840.5639183945493	1840.5639183945495
105	16210.49443313757	1868.8709281006159	1868.8709281006152
106	15932.007841490728	1897.603263804333	1897.6032638043328
107	15658.305482801548	1926.7670837550766	1926.7670837550768
108	15389.305166811413	1956.3686295429839	1956.3686295429836
109	15124.926115241116	1986.41422706778	1986.4142270677796
110	14865.088937533972	2016.9102875140554	2016.9102875140557
111	14609.71560701553	2047.8633083328752	2047.863308332874
112	14358.729437462896	2079.2798742295636	2079.279874229563
113	14112.0550600766	2111.1666581575514	2111.166658157551
114	13869.618400848021	2143.5304223180997	2143.530422318099
115	13631.346658315682	2176.378019165753	2176.3780191657524
116	13397.168281703629	2209.7163924193605	2209.71639241936
117	13167.012949435411	2243.5525780784565	2243.552578078456
118	12940.811548017184	2277.8937054448343	2277.8937054448343
119	12718.496151283545	2312.746998149101	2312.7469981491004
120	12499.999999999962	2348.1197751819964	2348.1197751819964
121	12285.2574818156	2384.019451930268	2384.0194519302677
122	12074.204111560533	2420.4535412168534	2420.4535412168516
123	11866.776511881453	2457.4296543451237	2457.429654345124
124	11662.912394210058	2494.9555021469523	2494.9555021469523
125	11462.550540058355	2533.0388960343016	2533.038896034301
126	11265.630782635344	2571.6877490540733	2571.6877490540737
127	11072.093988779474	2610.910076945925	2610.9100769459255
128	10881.882041201503	2650.713999202719	2650.7139992027187
129	10694.93782103248	2691.107740133292	2691.1077401332923
130	10511.205190671384	2732.099629927242	2732.0996299272415
131	10330.628976927599	2773.6981057212956	2773.698105721295
132	10153.154954452897	2815.9117126669753	2815.911712666976
133	9978.729829458078	2858.7491049991227	2858.7491049991213
134	9807.301223709339	2902.2190471048893	2902.21904710489
135	9638.817658799586	2946.330414592806	2946.3304145928078
136	9473.228540689945	2991.0921953614393	2991.0921953614384
137	9310.484144516846	3036.513490667219	3036.5134906672183
138	9150.535599660116	3082.603516190971	3082.6035161909704
139	8993.334875067583	3129.371603102619	3129.3716031026192
140	8838.8347648318	3176.8271991236006	3176.8271991236
141	8686.988874014563	3224.9798695863965	3224.979869586396
142	8537.751604714933	3273.8392984906914	3273.839298490692
143	8391.078142376608	3323.4152895555508	3323.4152895555494
144	8246.924442330546	3373.717767266997	3373.7177672669977
145	8105.247216568767	3424.756777920432	3424.7567779204314
146	7966.003920745346	3476.542490657181	3476.542490657181
147	7829.152741400758	3529.0851984945716	3529.0851984945693
148	7694.652583405684	3582.395319348765	3582.3953193487646
149	7562.463057620536	3636.4833970497243	3636.4833970497248
150	7432.544468766968	3691.360102347475	3691.360102347476
151	7304.857803507746	3747.0362339089675	3747.0362339089666
152	7179.364718731434	3803.522719304672	3803.5227193046735
153	7056.027530038285	3860.83061598416	3860.830615984161
154	6934.809200423995	3918.971112239718	3918.971112239718
155	6815.673329157826	3977.955528157194	3977.9555281571925
156	6698.584140851799	4037.7953165531044	4037.7953165531026
157	6583.506474717692	4098.502063897069	4098.502063897072
158	6470.405774008576	4160.087491218618	4160.0874912186155
159	6359.248075641757	4222.563454997245	4222.563454997245
160	6249.999999999972	4285.94194803486	4285.941948034858
161	6142.628740907792	4350.235100309326	4350.235100309326
162	6037.102055780258	4415.455179808129	4415.4551798081275
163	5933.3882559407175	4481.614593340919	4481.614593340917
164	5831.45619710502	4548.725887329789	4548.72588732979
165	5731.275270029169	4616.801748576035	4616.801748576035
166	5632.815391317664	4685.855005002079	4685.8550050020785
167	5536.046994389729	4755.898626367309	4755.898626367308
168	5440.941020600755	4826.945724956425	4826.945724956427
169	5347.468910516243	4899.009556238926	4899.009556238924
170	5255.602595335696	4972.103519498213	4972.103519498212
171	5165.314488463803	5046.241158428947	5046.241158428946
172	5076.577477226451	5121.436161700989	5121.436161700991
173	4989.364914729042	5197.702363488437	5197.702363488435
174	4903.650611854673	5275.053743962039	5275.0537439620375
175	4819.408829399796	5353.504429743399	5353.5044297434
176	4736.614270344968	5433.068694319143	5433.068694319144
177	4655.242072258418	5513.7609584133	5513.760958413297
178	4575.267799830054	5595.595790316089	5595.595790316089
179	4496.667437533788	5678.587906167185	5678.587906167186
180	4419.417382415897	5762.752170191486	5762.752170191488
181	4343.494437007279	5848.103594885432	5848.103594885429
182	4268.875802357462	5934.65734115178	5934.657341151778
183	4195.539071188299	6022.428718380734	6022.428718380737
184	4123.462221165275	6111.43318447522	6111.433184475221
185	4052.6236082843857	6201.686345818079	6201.686345818078
186	3983.001960372675	6293.2039571788455	6293.203957178845
187	3914.576370700381	6386.001921557813	6386.001921557814
188	3847.326291702844	6480.09628996486	6480.096289964865
189	3781.23152881027	6575.503261130585	6575.503261130585
190	3716.2722343834857	6672.239181147149	6672.239181147149
191	3652.428901753875	6770.320543036272	6770.320543036273
192	3589.682359365714	6869.763986241543	6869.763986241542
193	3528.0137650191396	6970.586296042339	6970.586296042341
194	3467.4046002119962	7072.8044028865625	7072.804402886562
195	3407.8366645789115	7176.435381639101	7176.435381639102
196	3349.292070425897	7281.496450743206	7281.496450743207
197	3291.753237358843	7388.004971291533	7388.004971291534
198	3235.2028870042855	7495.97844600384	7495.978446003837
199	3179.624037820876	7605.434518108006	7605.434518108003
200	3124.9999999999827	7716.390970121116	7716.390970121115
201	3071.3143704538925	7828.865722527214	7828.86572252721
202	3018.5510278901256	7942.876832348179	7942.876832348177
203	2966.6941279703565	8058.442491604314	8058.442491604314
204	2915.7280985525067	8175.581025660851	8175.58102566085
205	2865.6376350145815	8294.310891456726	8294.310891456727
206	2816.407695658829	8414.650675611863	8414.650675611862
207	2768.0234971948616	8536.619092408915	8536.619092408913
208	2720.470510300371	8660.234981645668	8660.234981645668
209	2673.7344552581153	8785.517306353864	8785.517306353864
210	2627.8012976678415	8912.485150380428	8912.48515038043
211	2582.6572442318957	9041.157715826734	9041.157715826732
212	2538.2887386132206	9171.554320341627	9171.554320341631
213	2494.682457364516	9303.6943942638	9303.6943942638
214	2451.8253059273306	9437.597477608882	9437.597477608882
215	2409.7044146998924	9573.283216896798	9573.2832168968
216	2368.3071351724843	9710.771361814548	9710.771361814552
217	2327.62103612921	9850.081761709716	9850.081761709718
218	2287.633899915027	9991.234361909694	9991.234361909694
219	2248.333718766894	10134.249199861784	10134.249199861784
220	2209.7086912079485	10279.146401089052	10279.14640108905
221	2171.747218503639	10425.946174956704	10425.9461749567
222	2134.437901178732	10574.66881024382	10574.66881024382
223	2097.7695355941505	10725.334670515122	10725.334670515122
224	2061.7311105826357	10877.964189287164	10877.964189287164
225	2026.311804142191	11032.577864983667	11032.57786498366
226	1991.5009801863357	11189.196255674216	11189.196255674215
227	1957.2881853501888	11347.839973590715	11347.839973590713
228	1923.6631458514203	11508.529679415717	11508.529679415713
229	1890.6157644051336	11671.286076336863	11671.286076336857
230	1858.1361171917413	11836.129903861462	11836.129903861463
231	1826.2144508769356	12003.08193138516	12003.081931385155
232	1794.8411796828573	12172.162951508513	12172.162951508513
233	1764.0068825095702	12343.393773095528	12343.393773095526
234	1733.702300105998	12516.795214067572	12516.795214067573
235	1703.9183322894555	12692.388093926664	12692.388093926666
236	1674.646035212949	12870.193226001502	12870.1932260015
237	1645.876618679422	13050.231409409906	13050.231409409906
238	1617.6014435021434	13232.523420731091	13232.523420731093
239	1589.8120189104386	13417.09000538131	13417.090005381311
240	1562.4999999999907	13603.951868686041	13603.951868686032
241	1535.6571852269456	13793.129666642235	13793.12966664223
242	1509.275513945062	13984.643996363893	13984.643996363895
243	1483.347063985177	14178.515386204108	14178.515386204102
244	1457.8640492762527	14374.764285546795	14374.764285546793
245	1432.81881750729	14573.411054261545	14573.41105426154
246	1408.2038478294135	14774.475951814413	14774.475951814411
247	1384.0117485974297	14977.979126028078	14977.979126028073
248	1360.2352551501858	15183.940601484413	15183.940601484408
249	1336.8672276290579	15392.380267562674	15392.380267562667
250	1313.900648833921	15603.317866106367	15603.317866106368
251	1291.3286221159478	15816.772978712213	15816.77297871221
252	1269.1443693066103	16032.76501363409	16032.765013634085
253	1247.341228682258	16251.313192295576	16251.31319229558
254	1225.9126529636658	16472.43653540412	16472.436535404107
255	1204.8522073499466	16696.153848660244	16696.153848660244
256	1184.1535675862378	16922.483708055483	16922.483708055483
257	1163.8105180646005	17151.444444751898	17151.444444751887
258	1143.8169499575095	17383.054129537766	17383.05412953776
259	1124.166859383443	17617.330556852157	17617.330556852157
260	1104.8543456039706	17854.29122837284	17854.291228372833
261	1085.873609251816	18093.953336161205	18093.953336161198
262	1067.2189505893618	18336.333745358457	18336.333745358454
263	1048.8847677970714	18581.44897642722	18581.448976427215
264	1030.865555291314	18829.315186932996	18829.315186933003
265	1013.1559020710918	19079.948152860245	19079.94815286024
266	995.7504900931641	19333.363249457674	19333.36324945767
267	978.6440926750905	19589.575431608093	19589.575431608086
268	961.8315729257071	19848.599213717873	19848.59921371787
269	945.3078822025637	20110.448649121812	20110.44864912181
270	929.0680585958673	20375.137308999034	20375.137308999023
271	913.1072254384645	20642.678260796252	20642.67826079625
272	897.4205898414253	20913.084046154836	20913.084046154832
273	882.0034412547819	21186.36665833843	21186.366658338422
274	866.8511500529958	21462.537519158373	21462.537519158363
275	851.9591661447248	21741.6074553945	21741.607455394496
276	837.3230176064712	22023.586674709288	22023.586674709295
277	822.9383093397078	22308.484741053762	22308.484741053755
278	808.8007217510686	22596.310549564023	22596.310549564016
279	794.9060094552162	22887.072300947886	22887.07230094789
280	781.2499999999923	23180.777475361352	23180.777475361352
281	767.8285926134698	23477.43280577534	23477.432805775334
282	754.6377569725281	23777.0442508338	23777.044250833806
283	741.6735319925858	24079.616967204656	24079.616967204645
284	728.9320246381241	24385.155281425643	24385.155281425636
285	716.4094087536428	24693.662661248258	24693.662661248258
286	704.1019239147046	25005.14168648284	25005.141686482828
287	692.0058742987128	25319.594019349264	25319.594019349257
288	680.1176275750898	25637.020374338368	25637.020374338354
289	668.433613814526	25957.42048758915	25957.42048758916
290	656.9503244169576	26280.79308578929	26280.793085789286
291	645.6643110579711	26607.13585460508	26607.135854605072
292	634.5721846533022	26936.445406649975	26936.44540664996
293	623.670614341126	27268.717249000267	27268.71724900025
294	612.9563264818299	27603.94575026799	27603.945750267987
295	602.4261036749705	27942.12410724205	27942.124107242045
296	592.0767837931177	28283.24431110928	28283.24431110929
297	581.9052590322991	28627.297113268556	28627.29711326854
298	571.9084749787535	28974.271990751684	28974.27199075168
299	562.0834296917202	29324.157111266337	29324.157111266344
300	552.4271728019845	29676.939297876757	29676.939297876754
301	542.9368046259073	30032.60399333986	30032.603993339842
302	533.6094752946801	30391.13522411462	30391.135224114616
303	524.4423838985349	30752.515564064946	30752.515564064935
304	515.4327776456566	31116.726097876028	31116.72609787603
305	506.5779510355456	31483.74638420689	31483.74638420689
306	497.87524504658177	31853.554418601678	31853.554418601667
307	489.32204633754503	32226.12659618477	32226.126596184757
308	480.91578646285296	32601.4376741653	32601.437674165296
309	472.6539411012813	32979.4607341781	32979.460734178116
310	464.5340292979331	33360.16714448978	33360.167144489795
311	456.55361271923186	33743.52652209956	33743.52652209954
312	448.71029492071233	34129.50669476605	34129.50669476607
313	441.0017206273906	34518.07366299312	34518.07366299311
314	433.42557502649765	34909.19156200755	34909.19156200757
315	425.97958307236206	35302.82262376546	35302.82262376545
316	418.6615088032353	35698.92713902275	35698.927139022744
317	411.46915466985354	36097.463419509	36097.463419509
318	404.400360875534	36498.38776024348	36498.38776024347
319	397.45300472760783	36901.65440203474	36901.65440203476
320	390.62499999999653	37307.215494206146	37307.215494206146
321	383.91429630673525	37715.021057590835	37715.02105759082
322	377.31887848626445	38125.01894784148	38125.018947841476
323	370.83676599629325	38537.15481910136	38537.154819101364
324	364.4660123190621	38951.37208808438	38951.37208808439
325	358.20470437682144	39367.611898613184	39367.61189861317
326	352.05096195735234	39785.81308666576	39785.813086665774
327	346.00293714935646	40205.912145982446	40205.91214598246
328	340.05881378754543	40627.84319428535	40627.843194285364
329	334.21680690726345	41051.537940165166	41051.53794016518
330	328.4751622084792	41476.92565068943	41476.92565068942
331	322.83215552898605	41903.93311978897	41903.93311978897
332	317.28609232665167	42332.48463747952	42332.48463747953
333	311.83530717056357	42762.501959975896	42762.501959975896
334	306.4781632409155	43193.90428075822	43193.90428075823
335	301.21305183748575	43626.608202649346	43626.608202649346
336	296.03839189655986	44060.527710963695	44060.527710963695
337	290.9526295161505	44495.57414778848	44495.574147788495
338	285.95423748937776	44931.65618745813	44931.65618745815
339	281.0417148458611	45368.679813284136	45368.679813284136
